0.520350275515091
0.816449443598676
1.15660193455313
1.51976086636502
1.88131093887809
2.21624804160128
2.50245419544323
2.72314148470768
2.86899206262068
2.94071502103311
2.94645984392166
2.90070177322713
2.82163074411167
2.72816075732386
2.63623327072638
2.55851581491382
2.50258822643367
2.46999412501057
2.45732586958595
2.45770334160857
2.46265774623584
2.46242800733064
2.45216688667222
2.42904468028321
2.3935181313617
2.34880913316281
2.2998547102809
2.25152187146878
2.20760192492771
2.17210232888708
2.14627132670149
2.12938294948488
2.11915437000501
2.11244310110002
2.10501342782898
2.09457158621439
2.08059446587887
2.06357510912669
2.04517685717752
2.02768757466033
2.0133552968007
2.00216932072977
1.99608246749326
1.99500568790174
1.9979725872385
2.00342591433869
2.00961114655678
2.01447783869815
2.01622046223702
2.01566726773456
2.01365718917311
2.01153622881561
2.01072153087325
2.01224823376683
2.01539170024146
2.01984174780968
2.0251416414922
2.03007563243574
2.03342364019174
2.03429295331694
2.03236809532913
2.02644316636767
2.01886984310799
2.01152456227793
2.00641736643657
2.00518012591641
2.00860369626711
2.01578942390631
2.02450756788886
2.03368094067205
2.04097822090934
2.04434392195621
2.04255062958077
2.03561441677991
2.02317832346702
2.00924783726543
1.99887142228111
1.99649998743765
2.00617219976284
2.03076889601022
2.07139436599276
2.12432243605192
2.18954539639058
2.26245506036001
2.3372625115357
2.40785480886322
2.46869054629222
2.51467373346711
2.54275315958814
2.55495224426505
2.55346526902512
2.5419928284771
2.52504938347797
2.50716527234118
2.49035204594562
2.47821501095134
2.4730022558133
2.47453033275756
2.48135451232741
2.49123576977821
2.50168401689947
2.50795669395416
2.51133440746273
2.51156640775432
2.50928914864395
2.50581006340062
2.50274325293965
2.50075709866082
2.50010139143771
2.50305013294033
2.50945527299053
2.51842119677452
2.52850271418994
2.53798246248876
2.54356527531796
2.54485563881036
2.54217345369803
2.53564833424837
2.52597088230976
2.51423185793171
2.50168401689947
2.48705945548292
2.4739324617087
2.46310369797043
2.45486358399225
2.44900137243719
2.44488019411337
2.44076786705359
2.43489383453078
2.42815575053209
2.4201028222876
2.41059948933998
2.39986570166132
2.38844040438659
2.37515102196315
2.36190139447469
2.35092371864807
2.3433351564025
2.33987856636923
2.34076400571489
2.34557893424495
2.35039499133552
2.35689889432181
2.36398895324033
2.37071722729463
2.37654240530907
2.38149546068719
2.38537907072053
2.38858321039688
2.39453813472426
2.40497902102117
2.42117318043403
2.44354910488653
2.4714364944033
2.50116114723937
2.53106170512547
2.55901959363158
2.58191462441389
2.59714643986107
2.60315544787395
2.59975003036193
2.58542019191877
2.56577466931181
2.54441971520305
2.52502526315507
2.510614108334
2.50294000341229
2.50114268213934
2.5027773689125
2.50711541764027
2.51076003939934
2.51031715034909
2.50320683990687
2.48830623098946
2.46439238531011
2.43506833115899
2.40542018820624
2.38010396480723
2.36333461824478
2.3579347272986
2.36459173277338
2.37866452449566
2.39926679058283
2.42101882503031
2.43788459343963
2.44441453285791
2.43695611813818
2.41362572870938
2.37590721280114
2.33168724116767
2.28948736982625
2.25921184625921
2.25064997697705
2.27187790570631
2.32587756614845
2.41462694862458
2.53578183810017
2.68169670581993
2.84122253992173
3.00101405038249
3.14711849325954
3.26360194208006
3.34346077567579
3.38054340475344
3.37302886422423
3.32346346276412
3.23824546570819
3.12564924401048
2.99566996829367
2.86206657342905
2.7357776316754
2.62581971802507
2.53853688492462
2.47721147950644
2.44005661161157
2.42575107321479
2.43118304792669
2.45098760172799
2.47935633500173
2.51079286999327
2.54071028756311
2.56297093390581
2.5790107214721
2.58891380119171
2.59394565893962
2.59614724465912
2.59784121688741
2.60017598451574
2.60382530895984
2.6116852120003
2.6237493509566
2.63908626584552
2.65606852404636
2.67269465537396
2.68510044095212
2.69279503169872
2.6960678587188
2.69503849940516
2.69059194539123
2.68423096071015
2.6778025716892
2.67044388212869
2.66680374172913
2.66822374465041
2.67525625798569
2.68760904680651
2.70421079782318
2.72248899532908
2.73966373166338
2.75588553681703
2.76982866153023
2.7807064395863
2.78841575862543
2.79355101317605
2.79546886095984
2.79689502495472
2.8008593669114
2.80930686751191
2.8237328124443
2.84494985747816
2.87293392500736
2.90415037837454
2.939894678694
2.97830373133715
3.01718903230869
3.05432539171471
3.08771374536271
3.11473892215018
3.13358887941881
3.14635746107354
3.15348946180751
3.15575851092193
3.15408021369285
3.14929531079986
3.13991899865535
3.12754202309337
3.11334367658127
3.09700619664954
3.07793324541573
3.05545651219316
3.02903900766188
2.99577209282507
2.95889693062718
2.91940580791107
2.87862560920351
2.83806420920144
2.79920323841596
2.76235860087282
2.72759573094541
2.69748884901794
2.67226315218766
2.65170956156652
2.63531658015823
2.6224124133856
2.61041674109903
2.59990001423134
2.5916736958554
2.58566859901401
2.58181738005313
2.57995856839459
2.57973655822674
2.57768948989304
2.57625889529072
2.57484261624793
2.57278396114805
2.56952819384729
2.56475804053038
2.55749966791445
2.5472887058098
2.53714087627186
2.52828935761364
2.52194916118648
2.51911417745746
2.52035798646541
2.5237349566221
2.52989895967936
2.53907514221934
2.5500578138319
2.56141158753689
2.57170783072451
2.57973655822674
2.58174178001329
2.58076860192526
2.57736798052722
2.57246551388917
2.56720827015787
2.56275754546138
2.55905665416019
2.55585907673671
2.55568763988959
2.55848795365986
2.56370944631229
2.57042953412097
2.57750697089564
2.58169369572626
2.58329810691986
2.58290121719936
2.58027622430305
2.57547452791036
2.56879917748376
2.5607237596983
2.54872172455241
2.53692455416215
2.52611971715641
2.51687369299998
2.50952152548412
2.50417418764696
2.49967804918334
2.49492807754286
2.49213261953009
2.49128399184183
2.49232807540075
2.49519327858838
2.49978897894666
2.50397469607112
2.50885950584101
2.51562712602009
2.52433350026274
2.53491130312548
2.5471585499394
2.5607237596983
2.57222645867362
2.58433037223471
2.59674008708879
2.60909284317043
2.62099766225322
2.63206038896327
2.64092721304828
2.64641298057344
2.65054765648546
2.65349852010478
2.65548363492724
2.65675802092297
2.65757815616848
2.65624756727495
2.65411742432171
2.65261588417684
2.65209026313634
2.65275598966041
2.65468488457213
2.657789099554
2.65911854295448
2.66138064009713
2.66444139701412
2.66805648639819
2.67190563517154
2.67561422876691
2.67762628823003
2.67640988615847
2.67425935472093
2.67133658543646
2.66781610398065
2.66382733566858
2.65938826184765
2.65220337256812
2.64327386414049
2.63386397194068
2.62424890137649
2.61487308411168
2.60640930560869
2.59975003036193
2.59307931155518
2.59068255827773
2.59380874487624
2.60325700120174
2.61916292242281
2.64084720370099
2.6658082771573
2.69095084351773
2.71590319101038
2.73831148113651
2.75617600153388
2.76822689520632
2.77415785264708
2.77276433556939
2.76676665155301
2.75954784543698
2.7535161348218
2.75052845162322
2.75144241376834
2.75585511301646
2.75927911943975
2.76236900354174
2.76263496933522
2.75791833583128
2.7470551450774
2.73034294985712
2.70870177848277
2.68455015515353
2.66429124074309
2.6522755000155
2.65172827664518
2.66384480017815
2.68718912054244
2.71560964272107
2.74388727798003
2.76570894445381
2.77389449344594
2.7629339261054
2.73038159836519
2.6778025716892
2.60815376040985
2.53445547220092
2.46942916270778
2.42657431534447
2.4180560641571
2.45263201873085
2.53297290111888
2.65586388627144
2.81532670470348
2.99819897965577
3.18779430936228
3.3661022671756
3.5161582856627
3.62212820258626
3.67645013174122
3.67760449663495
3.62888343382558
3.53864266116658
3.4188458605911
3.28321010377887
3.14224796233928
3.01109059764347
2.89881932176558
2.81079494982604
2.74862449685436
2.71064474191015
2.69177605381135
2.68569013309755
2.68897862469959
2.69678417434291
2.70533164259176
2.71218055786639
2.71617662305291
2.71531138629888
2.71134369936148
2.70643626248364
2.70175720013431
2.69823968615353
2.69649661470918
2.69681537021763
2.69640230682362
2.69835159026208
2.70271161063809
2.70937646573624
2.71808528967141
2.72839456174468
2.73872356401132
2.74750320139121
2.75598430191934
2.76346993720064
2.76933003230976
2.77314213793812
2.77478083359959
2.77262807939411
2.76836278419385
2.76384643297395
2.75993049624523
2.75721834271716
2.75593364980964
2.75585511301646
2.75370687548
2.75172097197968
2.74932079021126
2.74611824996625
2.74215859014982
2.73806692133144
2.73413908906736
2.7313103208445
2.7336030949591
2.74295017581342
2.76064231756234
2.78699399009195
2.82112943987997
2.85918154733695
2.89918389685225
2.93863610332703
2.97398922406048
3.00211032899701
3.02078275204749
3.02903900766188
3.02416688467377
3.01156762796521
2.99405196268475
2.97467804247499
2.95619057243109
2.94049468903422
2.92721555417026
2.91488397914279
2.90411421231743
2.89242719814267
2.87698535570748
2.85525833862036
2.82562383809694
2.78590630346096
2.73854392060728
2.68742579557957
2.6363779007045
2.58949532439586
2.55042619540326
2.52169748903467
2.50145857725724
2.49205127438295
2.49128089694292
2.4956605175544
2.50105953874969
2.50343809110876
2.49860803162201
2.48387977237136
2.46110086125965
2.43177159369136
2.39860643913503
2.36502423865126
2.33451704082807
2.30822827364027
2.28928621052852
2.27952390789696
2.27843358846813
2.28430591510562
2.29462500684251
2.30655266358132
2.31481397552794
2.32042771481234
2.32246806571397
2.32089222124491
2.31646727862601
2.31054270821256
2.30381761221654
2.29712815436975
2.29381217111118
2.29472796402188
2.30002188381322
2.30917974548149
2.32116873570878
2.33286914638395
2.34408370963704
2.35478029855136
2.36427822245388
2.37227954172621
2.37889937805963
2.38460520490858
2.38736115061786
2.39116674474275
2.3970270209456
2.40563749905338
2.41727723985188
2.43174644402681
2.44736058068852
2.46226159842193
2.47748777746275
2.49188665819663
2.50434859826213
2.51400104786512
2.52034372267586
2.52133607068313
2.5186556827213
2.51436105061762
2.5096062795553
2.50545979349355
2.50270774133398
2.50168401689947
2.49935145363044
2.49826461164085
2.49761376505891
2.49630645051108
2.49320968907735
2.48738027779609
2.4773518757377
2.46228900095671
2.44466971422515
2.42551920798133
2.40600386973197
2.38721306491525
2.36994000803416
2.35281014879325
2.33677707732355
2.32239445319186
2.30899133022661
2.29577380867229
2.28206948477251
2.26752639291768
2.24981976616925
2.23229028484523
2.21616346171588
2.20278873770853
2.19338373116989
2.18876585317056
2.18834699898316
2.19097985939967
2.19732562095626
2.20589051473986
2.21488695367726
2.2225734615761
2.22757878618224
2.22686426658119
2.22167583221273
2.21451522459229
2.20743050232178
2.20274519178769
2.20259792354349
2.20848665011886
2.21819213109926
2.23420780170708
2.25536979604271
2.2798102013908
2.30539409985511
2.33018691182911
2.35198495330647
2.3695570928497
2.38529076062172
2.40045548670041
2.41651469779955
2.43464458198854
2.45528707044707
2.47614710663966
2.49674598930235
2.51594015384324
2.5314200373311
2.54120681384716
2.54423236147613
2.54071028756311
2.5296537216309
2.51659869908685
2.50483293857586
2.49715370573068
2.49504006872185
2.4980398325795
2.5026791112471
2.50384797952163
2.49835528133942
2.48149802935604
2.45018950980438
2.40411714995657
2.34637918920903
2.28160692399665
2.21974964910173
2.17163747463123
2.14587489096143
2.1476510310941
2.17709539117041
2.22850012225405
2.28810156913982
2.34389119951468
2.3800894616944
2.38296142605193
2.34403217636202
2.26261101888223
2.14616061463212
2.01091240959624
1.88258769687119
1.78819281580497
1.75327609526124
1.79730150021035
1.92971176933748
2.14567221959341
2.43021175589139
2.75729156158176
3.0923252102255
3.39803574419361
3.63996111405469
3.79155229601284
3.83522734979358
3.77298798688528
3.61766750436711
3.39320230129889
3.1305906197523
2.86292165687012
2.61941838845769
2.42222899199964
2.28675921977079
2.21584558204067
2.20246566038628
2.2321536669067
2.28636639198814
2.34424404641411
2.39078230543684
2.41638685962207
2.41680379911001
2.39383549284253
2.35401404362017
2.30655266358132
2.25836206211745
2.22055409780623
2.19852516608578
2.19403636908389
2.20542166923017
2.22844231102443
2.25659586794164
2.28351107902126
2.30689973415376
2.32438841528565
2.33554062432802
2.34157318372845
2.34472840257051
2.34568317474389
2.34765647276187
2.35307505084218
2.36231431230898
2.37473411110012
2.38901881472683
2.40361800343702
2.41470931516264
2.42427734157717
2.43243469617704
2.43981922176963
2.44736554136323
2.45599174538276
2.46547158214606
2.47519236705402
2.48667287867268
2.49934058731727
2.51239384938332
2.52508166307305
2.5369506950235
2.54637670620899
2.55488098131292
2.56451544776464
2.57667739874792
2.59264229537009
2.61327202006035
2.63877630102557
2.66623270683256
2.69697620379305
2.72947695937041
2.76186802737946
2.79223283758492
2.81887204392184
2.83939864014054
2.85235014631676
2.86024130708668
2.86365203748644
2.86342296691679
2.86050536368889
2.85577949045041
2.84806023809875
2.83882517225869
2.82916361365419
2.81874940580866
2.80686637982342
2.79256720396974
2.7748679115449
2.75043119001511
2.72172795824044
2.68924398389145
2.65405922475052
2.61781546562494
2.58256850012683
2.54968049579742
2.52051138494673
2.49878849592799
2.48579486911533
2.48185336028604
2.4862148940024
2.49707076586538
2.51001453989063
2.52278517313266
2.53306596224634
2.53790930896801
2.53500232383218
2.52299497439443
2.50168401689947
2.46943760048488
2.43121576034962
2.3901373510224
2.34964048048973
2.31302206990574
2.2829862233463
2.26037435871262
2.24498596099639
2.23836166562067
2.23920370019658
2.2454537097641
2.25468220815625
2.26449186675302
2.27107507451145
2.27423182853525
2.27468660808681
2.27299675205838
2.27029294191292
2.26800415557279
2.26752639291768
2.26721881282706
2.27067396506207
2.27807654441613
2.28892137340727
2.30214521380592
2.31633198436643
2.32900958020172
2.33800334807687
2.34450440733292
2.34824215845579
2.34939080855992
2.348509432095
2.34640223951786
2.34199121929924
2.33734426745467
2.33438363723032
2.33368393477758
2.33545091864691
2.33955310262642
2.34557893424495
2.34996127819129
2.35540853072842
2.36157112093232
2.36808627916243
2.37460948413971
2.38081253946768
2.38535881069533
2.3870673677583
2.38799419296063
2.38818250910177
2.38768961351288
2.38662144534264
2.38514826448488
2.38161515902811
2.37750706267447
2.37448565660897
2.3732189710086
2.3742688959394
2.37801962829312
2.38460520490858
2.39113545497813
2.40027408262174
2.41168974839645
2.42482506954776
2.43897267095583
2.45334703669325
2.46621227687628
2.47601472131279
2.48433604999601
2.49102223268347
2.49603468938499
2.49943605380996
2.50135148935197
2.50012804651832
2.49698709739639
2.49332791447196
2.48961328247539
2.48624309458193
2.48353054597197
2.48167054476428
2.47811506454087
2.47571848341432
2.47465554187489
2.47497218164664
2.47659711086488
2.47934845553843
2.48199047219078
2.48327983675819
2.48510636539657
2.48754594300783
2.49071106364717
2.49474141986411
2.49976987942067
2.50365003340244
2.50761636602271
2.51327764857066
2.52112833357808
2.53156071453602
2.54478174730265
